#
#
#   Lonertzian-smoothed self-energy (both particle and hole)
#
#   k = 2.41585 fm^-1 (group = 3)     and E_F = -52.0162 MeV
#
#   Sigma^{infty} = 54.2637 MeV
#
#
#    E               Re \Sig(k,E)       Im \Sig(k,E)             k 

-287.96      52.8679       -0.000274405            2.41585
-287.26      52.8633       -0.000187101            2.41585
-286.56      52.8586       -9.38208e-05            2.41585
-285.86      52.8538       6.0463e-06            2.41585
-285.16      52.8489       0.000113205            2.41585
-284.46      52.844       0.000228472            2.41585
-283.76      52.8389       0.000352801            2.41585
-283.06      52.8338       0.000487312            2.41585
-282.36      52.8285       0.000633336            2.41585
-281.66      52.8232       0.000792468            2.41585
-280.96      52.8177       0.00096664            2.41585
-280.26      52.8121       0.00115822            2.41585
-279.56      52.8064       0.00137016            2.41585
-278.86      52.8005       0.00160619            2.41585
-278.16      52.7944       0.00187109            2.41585
-277.46      52.7882       0.00217116            2.41585
-276.76      52.7818       0.00251486            2.41585
-276.06      52.7751       0.0029139            2.41585
-275.36      52.7682       0.003385            2.41585
-274.66      52.761       0.00395298            2.41585
-273.96      52.7534       0.00465637            2.41585
-273.26      52.7453       0.00555836            2.41585
-272.56      52.7368       0.00676947            2.41585
-271.86      52.7276       0.00849814            2.41585
-271.16      52.7175       0.0111707            2.41585
-270.46      52.7068       0.0157066            2.41585
-269.76      52.6967       0.0237865            2.41585
-269.06      52.6927       0.0345106            2.41585
-268.36      52.6936       0.0366126            2.41585
-267.66      52.6849       0.0349178            2.41585
-266.96      52.6719       0.0422595            2.41585
-266.26      52.6683       0.0598883            2.41585
-265.56      52.6847       0.0659414            2.41585
-264.86      52.6892       0.0482462            2.41585
-264.16      52.6758       0.0343677            2.41585
-263.46      52.6577       0.0285103            2.41585
-262.76      52.6387       0.0273685            2.41585
-262.06      52.6192       0.0292512            2.41585
-261.36      52.599       0.0330493            2.41585
-260.66      52.5761       0.0386191            2.41585
-259.96      52.5493       0.0482168            2.41585
-259.26      52.5186       0.0650189            2.41585
-258.56      52.4865       0.0946058            2.41585
-257.86      52.4657       0.138144            2.41585
-257.16      52.4536       0.173426            2.41585
-256.46      52.4176       0.225076            2.41585
-255.76      52.4036       0.347894            2.41585
-255.06      52.5357       0.487078            2.41585
-254.36      52.7204       0.421676            2.41585
-253.66      52.731       0.295465            2.41585
-252.96      52.6642       0.256609            2.41585
-252.26      52.6013       0.309923            2.41585
-251.56      52.6327       0.448051            2.41585
-250.86      52.8432       0.491622            2.41585
-250.16      52.9682       0.328862            2.41585
-249.46      52.9482       0.192459            2.41585
-248.76      52.8974       0.120263            2.41585
-248.06      52.8504       0.0819323            2.41585
-247.36      52.811       0.0599399            2.41585
-246.66      52.778       0.0463571            2.41585
-245.96      52.7497       0.037465            2.41585
-245.26      52.7248       0.0313843            2.41585
-244.56      52.7024       0.0270944            2.41585
-243.86      52.6818       0.0240057            2.41585
-243.16      52.6625       0.0217599            2.41585
-242.46      52.6443       0.0201303            2.41585
-241.76      52.6267       0.0189687            2.41585
-241.06      52.6096       0.0181761            2.41585
-240.36      52.5929       0.0176859            2.41585
-239.66      52.5763       0.0174536            2.41585
-238.96      52.5597       0.0174506            2.41585
-238.26      52.543       0.0176605            2.41585
-237.56      52.5261       0.0180772            2.41585
-236.86      52.5089       0.018704            2.41585
-236.16      52.4912       0.0195533            2.41585
-235.46      52.4729       0.0206484            2.41585
-234.76      52.4539       0.0220257            2.41585
-234.06      52.434       0.023739            2.41585
-233.36      52.413       0.0258671            2.41585
-232.66      52.3907       0.0285258            2.41585
-231.96      52.3667       0.0318892            2.41585
-231.26      52.3407       0.0362278            2.41585
-230.56      52.3121       0.0419806            2.41585
-229.86      52.2801       0.0498993            2.41585
-229.16      52.2437       0.0613592            2.41585
-228.46      52.2018       0.0790739            2.41585
-227.76      52.1535       0.108813            2.41585
-227.06      52.1025       0.162959            2.41585
-226.36      52.0769       0.258092            2.41585
-225.66      52.1377       0.345519            2.41585
-224.96      52.1948       0.331136            2.41585
-224.26      52.1878       0.334974            2.41585
-223.56      52.2254       0.349791            2.41585
-222.86      52.2338       0.292491            2.41585
-222.16      52.1657       0.263326            2.41585
-221.46      52.09       0.302897            2.41585
-220.76      52.0722       0.379147            2.41585
-220.06      52.0828       0.407273            2.41585
-219.36      52.0655       0.445345            2.41585
-218.66      52.0935       0.476517            2.41585
-217.96      52.0774       0.45513            2.41585
-217.26      52.0187       0.476568            2.41585
-216.56      51.9638       0.546738            2.41585
-215.86      51.9804       0.662579            2.41585
-215.16      52.0822       0.664133            2.41585
-214.46      52.0421       0.559836            2.41585
-213.76      51.8687       0.546952            2.41585
-213.06      51.6622       0.673298            2.41585
-212.36      51.5093       0.950947            2.41585
-211.66      51.5133       1.32409            2.41585
-210.96      51.6621       1.61083            2.41585
-210.26      51.6936       1.98012            2.41585
-209.56      52.1867       2.74703            2.41585
-208.86      53.5262       2.75691            2.41585
-208.16      54.1612       1.78172            2.41585
-207.46      54.0541       1.04789            2.41585
-206.76      53.8027       0.675379            2.41585
-206.06      53.5867       0.502361            2.41585
-205.36      53.454       0.419395            2.41585
-204.66      53.3711       0.325025            2.41585
-203.96      53.2688       0.237143            2.41585
-203.26      53.1664       0.182514            2.41585
-202.56      53.0782       0.150648            2.41585
-201.86      53.0062       0.128436            2.41585
-201.16      52.9419       0.107838            2.41585
-200.46      52.8808       0.0922065            2.41585
-199.76      52.8243       0.0813658            2.41585
-199.06      52.7719       0.0737169            2.41585
-198.36      52.7228       0.0682737            2.41585
-197.66      52.676       0.0644911            2.41585
-196.96      52.6309       0.0620608            2.41585
-196.26      52.5866       0.0608147            2.41585
-195.56      52.5427       0.0606826            2.41585
-194.86      52.4986       0.0616773            2.41585
-194.16      52.4535       0.0638976            2.41585
-193.46      52.4069       0.0675497            2.41585
-192.76      52.3578       0.0729957            2.41585
-192.06      52.3054       0.0808523            2.41585
-191.36      52.2482       0.0921968            2.41585
-190.66      52.1849       0.109021            2.41585
-189.96      52.1137       0.135281            2.41585
-189.26      52.0354       0.178959            2.41585
-188.56      51.9635       0.250093            2.41585
-187.86      51.9239       0.322094            2.41585
-187.16      51.855       0.359767            2.41585
-186.46      51.7161       0.449987            2.41585
-185.76      51.5549       0.673914            2.41585
-185.06      51.5079       1.12693            2.41585
-184.36      51.9771       1.65815            2.41585
-183.66      52.733       1.4565            2.41585
-182.96      52.882       0.921343            2.41585
-182.26      52.7283       0.621138            2.41585
-181.56      52.5392       0.504735            2.41585
-180.86      52.372       0.478706            2.41585
-180.16      52.2073       0.510539            2.41585
-179.46      52.0571       0.613375            2.41585
-178.76      51.9166       0.787353            2.41585
-178.06      51.8646       1.12766            2.41585
-177.36      52.1318       1.43605            2.41585
-176.66      52.3838       1.47156            2.41585
-175.96      52.5686       1.54576            2.41585
-175.26      52.8858       1.64158            2.41585
-174.56      53.3505       1.41263            2.41585
-173.86      53.4504       0.971124            2.41585
-173.16      53.3599       0.703678            2.41585
-172.46      53.263       0.52245            2.41585
-171.76      53.1294       0.393798            2.41585
-171.06      52.9997       0.338816            2.41585
-170.36      52.901       0.310137            2.41585
-169.66      52.7924       0.295049            2.41585
-168.96      52.6792       0.337987            2.41585
-168.26      52.6258       0.464249            2.41585
-167.56      52.7512       0.572401            2.41585
-166.86      52.8862       0.455326            2.41585
-166.16      52.854       0.309536            2.41585
-165.46      52.7658       0.233273            2.41585
-164.76      52.6765       0.208447            2.41585
-164.06      52.6109       0.208751            2.41585
-163.36      52.5573       0.199498            2.41585
-162.66      52.4884       0.188345            2.41585
-161.96      52.4021       0.191904            2.41585
-161.26      52.3042       0.22437            2.41585
-160.56      52.2118       0.295784            2.41585
-159.86      52.1415       0.389329            2.41585
-159.16      52.0566       0.521633            2.41585
-158.46      52.0423       0.788925            2.41585
-157.76      52.3126       1.02448            2.41585
-157.06      52.5843       0.949237            2.41585
-156.36      52.7306       0.859439            2.41585
-155.66      52.8646       0.676564            2.41585
-154.96      52.8376       0.460823            2.41585
-154.26      52.7246       0.327237            2.41585
-153.56      52.5926       0.264406            2.41585
-152.86      52.4598       0.248075            2.41585
-152.16      52.3227       0.26783            2.41585
-151.46      52.1735       0.330967            2.41585
-150.76      52.0075       0.465817            2.41585
-150.06      51.8465       0.742527            2.41585
-149.36      51.8572       1.27241            2.41585
-148.66      52.4976       1.79773            2.41585
-147.96      53.3184       1.44733            2.41585
-147.26      53.4592       0.842573            2.41585
-146.56      53.3273       0.495733            2.41585
-145.86      53.1741       0.319638            2.41585
-145.16      53.0453       0.226763            2.41585
-144.46      52.9447       0.175255            2.41585
-143.76      52.8661       0.138512            2.41585
-143.06      52.7946       0.109584            2.41585
-142.36      52.7284       0.0908087            2.41585
-141.66      52.6678       0.0798052            2.41585
-140.96      52.6111       0.074992            2.41585
-140.26      52.5565       0.0768067            2.41585
-139.56      52.5029       0.0885057            2.41585
-138.86      52.4535       0.11847            2.41585
-138.16      52.4315       0.177028            2.41585
-137.46      52.4833       0.218665            2.41585
-136.76      52.5298       0.165021            2.41585
-136.06      52.5072       0.103354            2.41585
-135.36      52.4641       0.0694744            2.41585
-134.66      52.4209       0.0518151            2.41585
-133.96      52.3805       0.0420276            2.41585
-133.26      52.3425       0.0363172            2.41585
-132.56      52.3062       0.0329557            2.41585
-131.86      52.2709       0.0311105            2.41585
-131.16      52.236       0.0303654            2.41585
-130.46      52.201       0.030519            2.41585
-129.76      52.1655       0.0314979            2.41585
-129.06      52.1291       0.0333216            2.41585
-128.36      52.0913       0.0360998            2.41585
-127.66      52.0515       0.0400585            2.41585
-126.96      52.0092       0.0456151            2.41585
-126.26      51.9637       0.053561            2.41585
-125.56      51.9145       0.0654654            2.41585
-124.86      51.8629       0.0839479            2.41585
-124.16      51.8156       0.107179            2.41585
-123.46      51.7665       0.120629            2.41585
-122.76      51.6954       0.13434            2.41585
-122.06      51.6048       0.164289            2.41585
-121.36      51.4969       0.218282            2.41585
-120.66      51.3745       0.310826            2.41585
-119.96      51.2572       0.452351            2.41585
-119.26      51.1365       0.62587            2.41585
-118.56      50.9706       0.902415            2.41585
-117.86      50.8426       1.45779            2.41585
-117.16      51.2465       2.37828            2.41585
-116.46      52.5928       2.62492            2.41585
-115.76      53.3567       1.76545            2.41585
-115.06      53.3574       1.05148            2.41585
-114.36      53.1551       0.662808            2.41585
-113.66      52.9541       0.487721            2.41585
-112.96      52.8325       0.427398            2.41585
-112.26      52.7939       0.354316            2.41585
-111.56      52.7246       0.251575            2.41585
-110.86      52.6328       0.189619            2.41585
-110.16      52.5611       0.160415            2.41585
-109.46      52.5092       0.12828            2.41585
-108.76      52.4514       0.0970639            2.41585
-108.06      52.3967       0.0792764            2.41585
-107.36      52.3524       0.0643575            2.41585
-106.66      52.3086       0.0478119            2.41585
-105.96      52.2647       0.0356            2.41585
-105.26      52.2235       0.0271973            2.41585
-104.56      52.1851       0.0210531            2.41585
-103.86      52.1492       0.0163036            2.41585
-103.16      52.1152       0.0124912            2.41585
-102.46      52.0829       0.00935321            2.41585
-101.76      52.0518       0.00672527            2.41585
-101.06      52.0218       0.00449819            2.41585
-100.36      51.9927       0.00259596            2.41585
-99.6599      51.9642       0.000964174            2.41585
-98.9599      51.9363       -0.000436693            2.41585
-98.2599      51.9087       -0.00163533            2.41585
-97.5599      51.8815       -0.0026521            2.41585
-96.8599      51.8545       -0.00350062            2.41585
-96.1599      51.8276       -0.00418865            2.41585
-95.4599      51.8006       -0.00471847            2.41585
-94.7599      51.7736       -0.00508695            2.41585
-94.0599      51.7464       -0.00528498            2.41585
-93.3599      51.7188       -0.00529665            2.41585
-92.6599      51.6909       -0.00509757            2.41585
-91.9599      51.6624       -0.0046525            2.41585
-91.2599      51.6331       -0.00391151            2.41585
-90.5599      51.603       -0.0028043            2.41585
-89.8599      51.5717       -0.00123119            2.41585
-89.1599      51.539       0.000951021            2.41585
-88.4599      51.5045       0.00395223            2.41585
-87.7599      51.4678       0.00808816            2.41585
-87.0599      51.4281       0.013849            2.41585
-86.3599      51.3845       0.0220258            2.41585
-85.6599      51.3357       0.0339549            2.41585
-84.9599      51.2799       0.0520228            2.41585
-84.2599      51.2146       0.0807761            2.41585
-84.1399      51.2022       0.0873402            2.41585
-84.0199      51.1894       0.0945363            2.41585
-83.8999      51.1762       0.102443            2.41585
-83.7799      51.1626       0.111148            2.41585
-83.6599      51.1486       0.120756            2.41585
-83.5399      51.1342       0.131385            2.41585
-83.4199      51.1193       0.143171            2.41585
-83.2999      51.104       0.156271            2.41585
-83.1799      51.0884       0.170866            2.41585
-83.0599      51.0724       0.187163            2.41585
-82.9399      51.0562       0.205402            2.41585
-82.8199      51.0399       0.225852            2.41585
-82.6999      51.0237       0.24882            2.41585
-82.5799      51.0077       0.274647            2.41585
-82.4599      50.9924       0.303707            2.41585
-82.3399      50.9782       0.336394            2.41585
-82.2199      50.9657       0.373105            2.41585
-82.0999      50.9556       0.414205            2.41585
-81.9799      50.9491       0.459971            2.41585
-81.8599      50.9475       0.510501            2.41585
-81.7399      50.9523       0.565596            2.41585
-81.6199      50.9654       0.624588            2.41585
-81.4999      50.9886       0.686153            2.41585
-81.3799      51.0239       0.748129            2.41585
-81.2599      51.0726       0.807422            2.41585
-81.1399      51.135       0.860112            2.41585
-81.0199      51.21       0.901848            2.41585
-80.8999      51.2947       0.928574            2.41585
-80.7799      51.3845       0.937401            2.41585
-80.6599      51.474       0.927355            2.41585
-80.5399      51.5577       0.899644            2.41585
-80.4199      51.6312       0.857325            2.41585
-80.2999      51.6919       0.804535            2.41585
-80.1799      51.7388       0.745615            2.41585
-80.0599      51.7722       0.684417            2.41585
-79.9399      51.7937       0.623945            2.41585
-79.8199      51.8051       0.566274            2.41585
-79.6999      51.8084       0.512658            2.41585
-79.5799      51.8053       0.463717            2.41585
-79.4599      51.7974       0.419623            2.41585
-79.3399      51.786       0.380266            2.41585
-79.2199      51.7721       0.34537            2.41585
-79.0999      51.7565       0.314582            2.41585
-78.9799      51.7397       0.287521            2.41585
-78.8599      51.7222       0.263815            2.41585
-78.7399      51.7044       0.243118            2.41585
-78.6199      51.6864       0.22512            2.41585
-78.4999      51.6684       0.209549            2.41585
-78.3799      51.6507       0.196174            2.41585
-78.2599      51.6331       0.184801            2.41585
-78.1399      51.6159       0.175272            2.41585
-78.0199      51.5991       0.167462            2.41585
-77.8999      51.5827       0.161277            2.41585
-77.7799      51.5668       0.156647            2.41585
-77.6599      51.5514       0.153526            2.41585
-77.5399      51.5367       0.151886            2.41585
-77.4199      51.5228       0.151709            2.41585
-77.2999      51.5097       0.152979            2.41585
-77.1799      51.4978       0.155665            2.41585
-77.0599      51.4873       0.159701            2.41585
-76.9399      51.4784       0.16496            2.41585
-76.8199      51.4715       0.171218            2.41585
-76.6999      51.467       0.178118            2.41585
